时间(s),X坐标(m),Y坐标(m),vx,vy,bias_x,bias_y
161.826,-4.063144395619034,5.054867176847928,0.14470572445329746,-0.13602171055027318,3.4754413888093216,-1.833650696576816
161.926,-4.047576146089292,5.040934340928208,0.1443335211199755,-0.13607780172999415,3.475441389176543,-1.833650696700229
162.026,-4.033607310166536,5.025287625289605,0.144076960896914,-0.13597921941704527,3.475441389544872,-1.8336506968240127
162.126,-4.024804994128701,5.006684827585396,0.14787939797880295,-0.13211688157007428,3.4754413897522904,-1.8336506963517385
162.226,-4.01600412759833,4.988087464122896,0.1516930714796613,-0.12824452426160377,3.4754413899592236,-1.833650695877667
162.326,-3.999393564694808,4.972224939778481,0.1546104860186551,-0.12263169824890365,3.475441391589182,-1.8336506941674333
162.426,-3.9818898868533625,4.9558246226569596,0.1572122334356012,-0.11650078079495038,3.4754413932234325,-1.8336506924534728
162.526,-3.9700970822667525,4.9398251575285075,0.16115096900606438,-0.10882334879503774,3.4754413923276246,-1.8336506912438773
162.626,-3.9542785793372044,4.9262046552306895,0.16515365152895384,-0.10035760530254992,3.475441391424188,-1.8336506900358027
162.726,-3.925918122528633,4.907534208473228,0.16427186279953496,-0.08833490745765633,3.475441394533396,-1.8336506908663812
162.826,-3.895970338242122,4.892036584581145,0.1606631424753798,-0.07515211822418205,3.4754413976547034,-1.8336506917031064
162.926,-3.87030102906224,4.879624471509093,0.15066205968979007,-0.058780865845131314,3.4754413992999695,-1.8336506921903928
163.026,-3.8410284181311094,4.870122251798169,0.140068873005497,-0.04247922990385417,3.475441400940785,-1.8336506926766256
163.126,-3.8132062104222366,4.872213101297158,0.11867654452212363,-0.030616583998366358,3.475441398772882,-1.8336506921937645
163.226,-3.785419421175111,4.874313987909415,0.09725659304187315,-0.01876665174549892,3.475441396593495,-1.8336506917079816
163.326,-3.770362752409503,4.8845387354872605,0.0730809414440434,-0.013418733384511557,3.4754413930396906,-1.8336506906849557
163.426,-3.7567005807420175,4.896085762946434,0.04827273758504914,-0.009927979939398071,3.4754413894817415,-1.83365068966031
163.526,-3.7501166054986754,4.912742279643728,0.022779422349767382,-0.012762802534943371,3.4754413857317163,-1.8336506874462417
163.626,-3.7496422964936458,4.932051640709437,-0.001954512676794775,-0.02194885618788264,3.475441381981112,-1.8336506852285874
163.726,-3.7509385088894254,4.947195745121536,-0.026236795814537743,-0.038258798959250245,3.475441378678507,-1.8336506840137798
163.826,-3.762458908136068,4.9595850649166255,-0.048286904445999757,-0.05763291214829229,3.4754413753772533,-1.833650682801996
163.926,-3.7810118476958205,4.96554151528864,-0.061707201177535045,-0.0847270227987586,3.475441371348751,-1.8336506829302115
164.026,-3.7970150668005456,4.966327351540548,-0.07506823467172272,-0.11176393250867443,3.475441367318055,-1.833650683062467
164.126,-3.811703368999101,4.946432722178512,-0.083546023189209,-0.13277865976048484,3.4754413614117166,-1.8336506849642948
164.226,-3.8264096855681604,4.9265199661686285,-0.09200939154263067,-0.15377589504922196,3.4754413554997226,-1.8336506868714582
164.326,-3.852664796971903,4.920749058595581,-0.09112408604049403,-0.1806117612541669,3.4754413487895963,-1.8336506856502965
164.426,-3.8812901568566205,4.917818149713847,-0.08752298580713135,-0.20927453192469483,3.4754413420770636,-1.8336506844197025
164.526,-3.910654024776948,4.900719452809988,-0.0767315243217242,-0.2392829950004945,3.4754413339361867,-1.8336506849850516
164.626,-3.9317364739612195,4.872939340138423,-0.06186554411480995,-0.2678655117509166,3.4754413257910035,-1.833650685555816
164.726,-3.9402242091535427,4.846352264115871,-0.04606734138366862,-0.29653504202263736,3.4754413212200777,-1.833650684529189
164.826,-3.944319739611538,4.809760782965361,-0.03055762311347541,-0.3233858673291156,3.4754413166599294,-1.8336506834977453
164.926,-3.9542080565985214,4.759274865599263,-0.011180598579215544,-0.3391724768869403,3.4754413093195637,-1.8336506853780135
165.026,-3.9631499907622207,4.707881648442892,0.008356605828466302,-0.3544989267775719,3.4754413019708155,-1.8336506872670606
165.126,-3.9718639874818664,4.643867890712154,0.034672082476111706,-0.34960289388475096,3.4754412936052392,-1.8336506924095872
165.226,-3.980585603837182,4.579823588582132,0.06100672441979712,-0.3446495648306902,3.475441285236597,-1.8336506975619238
165.326,-3.9649112010896994,4.539581358366327,0.0819794010403393,-0.33723554936444416,3.475441280085198,-1.8336506984223917
165.426,-3.9461940138271885,4.502519489380402,0.10126172133658232,-0.32943063535510997,3.4754412749435004,-1.8336506992699189
165.526,-3.9293910209992773,4.468269130575344,0.11838574180904997,-0.3210616769145984,3.4754412683561626,-1.8336506994414936
165.626,-3.9153418121114325,4.432354851626596,0.134683407322216,-0.31158258994927,3.475441261764466,-1.8336506996110302
165.726,-3.8933699431758777,4.390202040528169,0.14747753593899635,-0.2975748286211393,3.475441257129584,-1.8336507022579493
165.826,-3.8704651152946203,4.354437552464688,0.15868819406816256,-0.28271833748836456,3.4754412525006018,-1.833650704912338
165.926,-3.8488924506640974,4.320511529744537,0.16611423503391307,-0.264331270122979,3.475441247060199,-1.8336507080117443
166.026,-3.826741249976724,4.286804741445388,0.17337874954145727,-0.24575178590578572,3.4754412416173497,-1.8336507111124924
166.126,-3.7956164324379476,4.2500220881322415,0.17103479434266147,-0.21852760255532633,3.4754412385524827,-1.833650715613985
166.226,-3.764469564818997,4.213228274499321,0.16866316933242617,-0.1912789209291209,3.475441235494786,-1.8336507201197012
166.326,-3.7305016187840967,4.199365742871198,0.15668693071667303,-0.16703035477817402,3.4754412303310294,-1.833650721497551
166.426,-3.69351873130799,4.188110306174848,0.1418616670406713,-0.14379847700125484,3.475441225160923,-1.83365072286597
166.526,-3.661226393459359,4.180336419472528,0.12052214269278719,-0.12291880875777697,3.4754412195809756,-1.833650725401151
166.626,-3.6313796005479273,4.180813452972218,0.0938409906208974,-0.10615570387177697,3.475441213999793,-1.8336507279398497
166.726,-3.612317324173963,4.173223696073137,0.0631912893552079,-0.09062441580059163,3.475441205943677,-1.8336507338710872
166.826,-3.591667424137678,4.174091737826753,0.029518421783480703,-0.07746207253136868,3.4754411978800985,-1.8336507398125539
166.926,-3.5840629289490535,4.171984712002961,-0.007773541920793672,-0.0682899091391352,3.4754411861754684,-1.8336507479533837
167.026,-3.580369264396649,4.1723035030305935,-0.044987315361541914,-0.05943347592484659,3.4754411744598603,-1.8336507561008446
167.126,-3.593191039626411,4.173323167636023,-0.07641999624916687,-0.056061756353799966,3.475441161233723,-1.8336507664020683
167.226,-3.606029401006815,4.1743239819107325,-0.10783598636282045,-0.052703948427627836,3.4754411480030307,-1.8336507767097856
167.326,-3.630086323145903,4.188092978868278,-0.1321883427942436,-0.05939289515217438,3.4754411353405548,-1.8336507832272415
167.426,-3.6562598035381733,4.202128127799927,-0.15447312556312268,-0.06880254056738896,3.475441122679792,-1.8336507897332688
167.526,-3.6879559414894305,4.208233351722046,-0.1711749904040725,-0.08275915202814951,3.4754411093190156,-1.8336507975496252
167.626,-3.7182631010955722,4.207647509003182,-0.1836542723561858,-0.09899136896583169,3.475441095956129,-1.8336508053699323
167.726,-3.750067174342025,4.207910583813307,-0.19060872375288715,-0.1194042460565513,3.4754410826180724,-1.8336508122259418
167.826,-3.7824235575774545,4.194934074606896,-0.194975310116001,-0.13891590708405008,3.4754410692800906,-1.833650819079044
167.926,-3.811173263622388,4.171929304288899,-0.19319624471112526,-0.15287150180219816,3.475441057292132,-1.8336508273935481
168.026,-3.841992256764054,4.149202526528312,-0.19100097053891812,-0.16668432755580118,3.475441045308244,-1.8336508357124588
168.126,-3.8651898240548297,4.135476438202,-0.18496991370628263,-0.1821107198269759,3.475441037809671,-1.8336508411940255
168.226,-3.888346556180229,4.1217749513342055,-0.1789307251608272,-0.19754306611326172,3.475441030324622,-1.8336508466670374
168.326,-3.9071676784736873,4.094300898647958,-0.17190261183329555,-0.20856566629533146,3.475441026347918,-1.8336508529688758
168.426,-3.928288267021294,4.064217787761442,-0.1644021051073923,-0.2181839641931,3.475441022381793,-1.8336508592732128
168.526,-3.9377554700762936,4.037258830032717,-0.15933405740425452,-0.22595495842318272,3.475441021880137,-1.8336508634620818
168.626,-3.947353554082537,4.005954637349167,-0.15626976336268913,-0.23096956086847734,3.4754410213889266,-1.8336508676445726
168.726,-3.952248237032744,3.976178111080018,-0.15762287840142808,-0.23324075996272492,3.4754410223368972,-1.83365087110736
168.826,-3.9710790771498545,3.9550122755293895,-0.1575509806714774,-0.23645668160400382,3.4754410232892075,-1.8336508745679774
168.926,-3.9836553096806457,3.919859544499722,-0.15887835925498314,-0.23330254660519315,3.475441027781503,-1.8336508835076193
169.026,-3.9980219918401,3.884398950049284,-0.16013000741998804,-0.22982974112579238,3.4754410322844724,-1.8336508924637815
169.126,-4.022719193603373,3.856863762476301,-0.15536804231852425,-0.2224979998758214,3.475441035081977,-1.8336508985716309
169.226,-4.0474319026724155,3.8293546808401664,-0.15058864317103812,-0.21515718547074228,3.475441037874339,-1.8336509046708922
169.326,-4.082140499190209,3.8032721531192393,-0.13490977676458565,-0.2054248915242934,3.4754410397573943,-1.8336509112742119
169.426,-4.119450544291031,3.7776552622513835,-0.11607067959659932,-0.19508628646995674,3.475441041637708,-1.8336509178790512
169.526,-4.1407590652327,3.7623545428353187,-0.09369893743268519,-0.18638403523887653,3.4754410474258033,-1.8336509227533666
169.626,-4.159270539412412,3.7564882598063716,-0.06867406793341166,-0.18169945339626684,3.475441053225681,-1.8336509276224644
169.726,-4.161085786664609,3.7366342392751832,-0.04574370229395054,-0.17630464533535484,3.475441063540583,-1.8336509373507703
169.826,-4.153441018237562,3.719560725825764,-0.025649573384281497,-0.1711626126536943,3.4754410738690984,-1.8336509470937274
169.926,-4.1402422132215335,3.698108703773866,-0.015550016505999924,-0.16358817913761362,3.4754410845715995,-1.8336509587216576
170.026,-4.12911921488821,3.6775973195314835,-0.005614718839473802,-0.15596078147860537,3.475441095275228,-1.8336509703552712
170.126,-4.130340257236893,3.6723843739740802,0.004384324544592021,-0.15512913757162725,3.475441103757483,-1.8336509778646763
170.226,-4.131580638133255,3.667209346868734,0.014384734247817586,-0.15431837331133347,3.47544111223304,-1.8336509853616463
170.326,-4.133169176648867,3.6459233007165,0.026351194688503873,-0.15026837542704555,3.475441121404564,-1.8336509975904693
170.426,-4.13614439512528,3.623939006292997,0.03897330711375724,-0.1452895557278766,3.4754411305781865,-1.8336510098335597
170.526,-4.128392984164785,3.609001662113716,0.05041240336281589,-0.14013590186960667,3.475441143106002,-1.8336510200394582
170.626,-4.125029021705152,3.5942568494709723,0.06227394312401925,-0.13479735291169948,3.475441155643931,-1.8336510302392144
170.726,-4.110023842318753,3.5868081431506864,0.07051404388168307,-0.13194649435550332,3.4754411715643934,-1.8336510382310136
170.826,-4.0900506743035026,3.585278782907099,0.07598258471650121,-0.13170476351551091,3.475441187495055,-1.8336510462161555
170.926,-4.076392888555686,3.5785906696390315,0.07709593787512509,-0.1360144719051351,3.475441200684777,-1.8336510565269521
171.026,-4.061607954817075,3.5714048931847877,0.07796471041831309,-0.14045804019039607,3.4754412138662345,-1.833651066844761
171.126,-4.04454592991359,3.551170925938915,0.07201083621119676,-0.14111507163727777,3.475441226713085,-1.8336510810180193
171.226,-4.027486915655534,3.5309017056205807,0.06603839951556183,-0.14175963392665045,3.475441239558927,-1.8336510952029026
171.326,-4.021955827357951,3.507579311695779,0.0609889463506047,-0.1375959246576178,3.4754412512108206,-1.8336511103778577
171.426,-4.018572345420446,3.4842619644679873,0.05637063392020604,-0.13214047733702883,3.475441262859114,-1.8336511255557981
171.526,-4.010066747426926,3.4700522988944407,0.05063969312043667,-0.12627742758801763,3.4754412762382594,-1.8336511379231464
171.626,-3.9994380200114525,3.455065480135964,0.043233508225518975,-0.11973194017223929,3.4754412896226237,-1.8336511502820205
171.726,-3.988229195130118,3.445901628331434,0.03299512708224261,-0.11434775901746497,3.4754413035112184,-1.8336511609746435
171.826,-3.9869301150355168,3.432852242894696,0.023692345987445473,-0.10839177567912481,3.4754413174013337,-1.8336511716622428
171.926,-3.9989147712240127,3.420772102541002,0.022989715023191613,-0.10154052966908432,3.475441328135183,-1.8336511817715415
172.026,-4.0093341409509495,3.411384579292394,0.02249733906287336,-0.09486729672022828,3.4754413388595156,-1.8336511918790965
172.126,-4.0127969462859046,3.416903778773151,0.026324216803682913,-0.09869404271505093,3.4754413503883383,-1.8336511996198255
172.226,-4.016252471916884,3.4224448742496,0.030162528197489977,-0.10255090152913725,3.4754413619195867,-1.8336512073534181
172.326,-4.030024356788331,3.4186901001360175,0.04357813350892065,-0.11013006216213889,3.4754413735735423,-1.833651219460644
172.426,-4.047408561741108,3.4163442085914326,0.059886698063359896,-0.11883873098154399,3.4754413852278683,-1.8336512315810567
172.526,-4.047989704975825,3.399853826894907,0.07840863287641037,-0.1257529140092807,3.4754414002524454,-1.8336512468106956
172.626,-4.0376430717331235,3.373978007119041,0.09601495546213343,-0.12850018005740338,3.4754414152871846,-1.8336512620497094
172.726,-4.022443225523994,3.355415847254439,0.1113160021383567,-0.12890863615821008,3.4754414312006596,-1.8336512747355236
172.826,-3.991246371971655,3.331909073871067,0.12182696608813116,-0.1269567339755646,3.4754414471167836,-1.8336512874136397
172.926,-3.9659871718767605,3.309344664492552,0.12329963896560577,-0.11856878328836754,3.475441459143109,-1.833651299323166
173.026,-3.94092560645354,3.286224436761466,0.12447253061132259,-0.10985620546050398,3.4754414711577053,-1.833651311230375
173.126,-3.9088327582886806,3.2810690691784745,0.11178415395498266,-0.10418099428673447,3.475441485668782,-1.8336513166986015
173.226,-3.8767172980310507,3.275972702923361,0.09905636143655287,-0.09851757970397385,3.4754415001873857,-1.8336513221474133
173.326,-3.860531476004546,3.2713396368227383,0.08350856317934985,-0.09543549626691834,3.475441513562453,-1.833651327234788
173.426,-3.847509267040022,3.2661605218796668,0.06746998035464058,-0.09299677182676874,3.4754415269340715,-1.833651332321073
173.526,-3.835406030606504,3.2555679458135924,0.04951725490085392,-0.09007325882745573,3.475441541593417,-1.8336513393637064
173.626,-3.828886754795088,3.2450356073634774,0.03121897887704094,-0.08670096960617871,3.475441556256644,-1.8336513464122384
173.726,-3.8272014320583345,3.2251488620611655,0.013514997559824618,-0.07870559661453044,3.4754415700765993,-1.833651356720453
173.826,-3.832382582529509,3.1994004089722425,-0.002588342705031185,-0.06684734356935418,3.475441583894012,-1.8336513670384966
173.926,-3.849537757453525,3.191063179422694,-0.008418876383474983,-0.05285096244676102,3.475441594836866,-1.8336513712702567
174.026,-3.8661258747796916,3.1844938170383488,-0.01390953276637326,-0.038909836919852094,3.4754416057710538,-1.8336513754836659
174.126,-3.8818440525011626,3.176745999766022,-0.00899316022375851,-0.022555535528143447,3.4754416164694493,-1.833651381832435
174.226,-3.8975647273043803,3.1689799564129797,-0.0040480729614870495,-0.006193460019514575,3.475441627167134,-1.8336513881876422
174.326,-3.907811165236596,3.178928646572915,0.006128516826172907,0.004546285448634558,3.475441639406281,-1.8336513908884404
174.426,-3.918083695263335,3.19002199622068,0.0177184538399675,0.013685882356127898,3.475441651650075,-1.83365139357822
174.526,-3.9150479930081774,3.210967198491935,0.02894494297155966,0.015945799473314565,3.4754416676850357,-1.833651393348125
174.626,-3.912263414846625,3.2304800403742098,0.04011416765897513,0.012635391093425007,3.4754416837314284,-1.8336513931092264
174.726,-3.9066140455222182,3.240853293499106,0.050607872823219525,0.005590973331491109,3.4754417002639375,-1.8336513957779075
174.826,-3.8917591904629956,3.2492303778186726,0.05869368970111398,-0.002888446605811854,3.475441716797913,-1.8336513984553553
174.926,-3.876585852908315,3.2473632642636088,0.06065475057818291,-0.01089120359431666,3.4754417322841924,-1.8336514041138996
175.026,-3.86423697861001,3.2446618341573794,0.06264242357212442,-0.018815666987711574,3.475441747767312,-1.833651409781432
175.126,-3.861285393558219,3.2430071155331808,0.06695686667724277,-0.026684252378707588,3.475441762771787,-1.8336514142686695
175.226,-3.8583379712767574,3.2413624636444096,0.07127795813031067,-0.03455331720360967,3.4754417777748188,-1.833651418752348
175.326,-3.8497501362976854,3.2363591147727035,0.07465720497693337,-0.04190760592231927,3.4754417931957184,-1.8336514250611604
175.426,-3.8400427058674924,3.232498458190334,0.0776882788640671,-0.04922872960868417,3.4754418086178775,-1.8336514313754757
175.526,-3.825350617426895,3.2281476955943273,0.07830040287106348,-0.05693031385433289,3.47544182567536,-1.83365143803918
175.626,-3.8119345266866773,3.2290407596585937,0.0771758894845842,-0.06660443548757286,3.4754418427377733,-1.8336514447039376
175.726,-3.7985125858670576,3.2356506919546946,0.07370621755726872,-0.08174218148024753,3.475441859849336,-1.8336514490570144
175.826,-3.7817549048130954,3.237702466329281,0.06819526120792699,-0.09866405024227043,3.4754418769610473,-1.8336514534031212
175.926,-3.7635109001875686,3.2276641856820256,0.05544523489017697,-0.11602941271280752,3.475441894373102,-1.8336514608543821
176.026,-3.7489673846142746,3.215291471325842,0.0426888105609146,-0.13325680985499835,3.4754419117860618,-1.8336514683150056
176.126,-3.7465877399516216,3.203065665837597,0.031227212619951476,-0.15084035736311485,3.475441928767519,-1.8336514733952383
176.226,-3.7442130039210664,3.190860060928479,0.019769402980777794,-0.16842615970339006,3.4754419457476753,-1.8336514784682936
176.326,-3.742540317434512,3.172755231110974,0.00879109905790079,-0.18532905075161732,3.4754419657133195,-1.833651483234781
176.426,-3.7431760957795155,3.1535965990183334,-0.0018610475484206884,-0.2019658441435992,3.4754419856879655,-1.833651488000344
176.526,-3.7461571025991502,3.127128722266436,-0.011537337416002106,-0.21637206662074443,3.4754420058427007,-1.8336514935781976
176.626,-3.7520257406868707,3.0951000480706243,-0.019677486671675716,-0.22744799894596401,3.475442025997979,-1.8336514991585
176.726,-3.770505318407988,3.0584175270291083,-0.021015132949002705,-0.23278984857611065,3.4754420422912826,-1.8336515058251877
176.826,-3.785165274279629,3.0272215627600914,-0.02014636902123778,-0.2369445572722448,3.4754420585729418,-1.8336515124951507
176.926,-3.790984281934317,2.99804349859026,-0.016404216513521527,-0.23756553088357238,3.475442077355983,-1.833651518975506
177.026,-3.7935097348948505,2.9697696331619055,-0.012841162945404345,-0.2381336328089782,3.475442096146566,-1.8336515254552899
177.126,-3.797271970566972,2.9448901050367673,-0.008137733934776825,-0.2378715072691462,3.4754421113955147,-1.8336515316567663
177.226,-3.801066001893864,2.920013059152864,-0.0034292730978702987,-0.23760725032289987,3.4754421266337854,-1.8336515378574036
177.326,-3.802339460909607,2.902038422243017,0.0018340530781013904,-0.24046275202808592,3.475442142502943,-1.833651542147146
177.426,-3.8037025774537043,2.8844339759226547,0.007257512413021852,-0.24418799415640702,3.4754421583740025,-1.833651546431127
177.526,-3.793079812883625,2.871890652496644,0.009298244840432233,-0.25191445336640433,3.475442178514185,-1.83365154741101
177.626,-3.787466830657602,2.847431693941428,0.009866725651042726,-0.2598169917158285,3.4754421986672392,-1.833651548380931
